Depth,AvgAmplitude,MaxAmplitude,Dominant Frequency
0.0,0.0,0.0,109.0
1.0,0.0,0.0,109.0
2.0,0.0,0.0,90.0
3.0,0.0,0.0,90.0
4.0,0.0,0.0,102.0
5.0,2.305976629257202,423.57421875,102.0
6.0,4.921080589294434,529.4677734375,102.0
7.0,7.0496344566345215,529.4677734375,120.0
8.0,8.301819801330566,525.1328125,120.0
9.0,11.072407722473145,674.666015625,120.0
10.0,11.561935424804688,1079.46484375,123.0
11.0,14.162186622619629,1484.263671875,123.0
12.0,19.79037857055664,1094.8828125,99.0
13.0,24.043516159057617,1581.49609375,99.0
14.0,36.03921890258789,2231.8203125,99.0
15.0,53.07797622680664,3643.19140625,118.0
16.0,80.1128921508789,4452.7890625,118.0
17.0,107.72984313964844,3913.05859375,118.0
18.0,169.90719604492188,3884.576171875,118.0
19.0,248.14669799804688,3616.673828125,118.0
20.0,336.17108154296875,5393.46484375,103.0
21.0,408.51043701171875,5393.46484375,100.0
22.0,500.6584777832031,5893.8359375,100.0
23.0,603.504150390625,7457.51171875,114.0
24.0,746.9437866210938,9438.41015625,114.0
25.0,936.1431884765625,10664.34765625,114.0
26.0,1094.592041015625,8699.70703125,75.0
27.0,1140.1324462890625,8431.80859375,75.0
28.0,1184.3502197265625,8460.91796875,117.0
29.0,1254.437744140625,9739.89453125,117.0
30.0,1413.43798828125,9478.171875,117.0
31.0,1587.7591552734375,9698.03125,117.0
32.0,1742.473388671875,10771.51171875,95.0
33.0,1840.8232421875,12000.61328125,95.0
34.0,1902.5413818359375,11798.921875,113.0
35.0,2068.22509765625,12297.84765625,113.0
36.0,2255.8779296875,12199.46484375,113.0
37.0,2428.22998046875,12014.921875,113.0
38.0,2408.02978515625,12133.3125,137.0
39.0,2351.513427734375,12541.15625,120.0
40.0,2523.6064453125,11277.2421875,120.0
41.0,2740.26611328125,12088.91796875,125.0
42.0,2876.570068359375,12687.03125,99.0
43.0,2986.68896484375,12926.41015625,99.0
44.0,3021.853271484375,12716.66015625,99.0
45.0,2966.738525390625,12092.609375,99.0
46.0,2968.393310546875,11724.56640625,129.0
47.0,3019.27587890625,12418.1875,129.0
48.0,3181.862548828125,13305.203125,129.0
49.0,3319.322021484375,12660.5078125,120.0
50.0,3390.7060546875,12892.3203125,104.0
51.0,3362.42724609375,13262.08203125,104.0
52.0,3239.189208984375,14312.54296875,104.0
53.0,3110.09765625,12203.47265625,104.0
54.0,3041.66357421875,12438.39453125,104.0
55.0,3205.477294921875,12279.90625,136.0
56.0,3424.46044921875,11335.16015625,136.0
57.0,3548.451171875,13084.14453125,136.0
58.0,3607.224609375,13587.140625,136.0
59.0,3524.777587890625,12749.0,96.0
60.0,3350.80224609375,12002.015625,94.0
61.0,3233.50537109375,11650.828125,94.0
62.0,3117.912841796875,10968.1875,94.0
63.0,3237.0068359375,11624.14453125,113.0
64.0,3419.70751953125,12979.3359375,119.0
65.0,3398.080322265625,12729.1640625,119.0
66.0,3265.226806640625,13586.296875,120.0
67.0,3156.7734375,13367.1640625,123.0
68.0,3101.575439453125,12642.28125,113.0
69.0,3254.396728515625,13027.015625,113.0
70.0,3302.460205078125,14332.47265625,113.0
71.0,3244.536865234375,13384.0,120.0
72.0,3168.839599609375,13872.07421875,120.0
73.0,3276.8115234375,13339.79296875,120.0
74.0,3396.441650390625,12141.28125,131.0
75.0,3519.464599609375,14134.1328125,131.0
76.0,3470.968017578125,14243.69921875,131.0
77.0,3298.910888671875,12657.79296875,83.0
78.0,3422.54443359375,12631.14453125,108.0
79.0,3731.949951171875,15486.03515625,83.0
80.0,3871.330810546875,18304.71875,83.0
81.0,3882.30224609375,18590.73046875,95.0
82.0,3836.121826171875,14859.9765625,95.0
83.0,3916.75537109375,15291.140625,95.0
84.0,4259.45166015625,16612.29296875,131.0
85.0,4446.7265625,20272.6328125,131.0
86.0,4331.8466796875,18583.24609375,100.0
87.0,4194.88037109375,20035.921875,98.0
88.0,4069.52001953125,22659.0234375,109.0
89.0,4332.951171875,20870.265625,109.0
90.0,4572.599609375,19076.25390625,116.0
91.0,4613.14404296875,18514.890625,99.0
92.0,4380.4228515625,17531.43359375,99.0
93.0,4045.19384765625,22304.9765625,99.0
94.0,3899.019775390625,20369.375,99.0
95.0,4015.96142578125,18343.3046875,119.0
96.0,4206.857421875,19782.484375,114.0
97.0,4163.35498046875,19090.3359375,114.0
98.0,3905.541259765625,22535.3203125,101.0
99.0,3499.10888671875,21576.37109375,96.0
100.0,3478.8603515625,14493.921875,96.0
101.0,3550.771728515625,14387.2578125,96.0
102.0,3661.063720703125,17462.7109375,96.0
103.0,3724.55078125,16662.89453125,94.0
104.0,3497.65283203125,15183.37109375,94.0
105.0,3381.968505859375,13744.9453125,94.0
106.0,3449.896484375,12379.6640625,94.0
107.0,3382.337158203125,14681.97265625,143.0
108.0,3433.8779296875,15381.1171875,143.0
109.0,3422.79052734375,13783.5703125,125.0
110.0,3330.937744140625,12361.4765625,125.0
111.0,3291.50830078125,13744.02734375,125.0
112.0,3332.634033203125,14737.6953125,125.0
113.0,3290.356689453125,17198.96875,84.0
114.0,3277.754150390625,17198.96875,130.0
115.0,3457.61181640625,13550.8203125,129.0
116.0,3588.884765625,13713.04296875,95.0
117.0,3611.405517578125,14649.921875,89.0
118.0,3608.00537109375,14793.34765625,89.0
119.0,3621.56982421875,13635.60546875,109.0
120.0,3834.08837890625,14626.94921875,133.0
121.0,3810.023193359375,17171.765625,89.0
122.0,3793.866455078125,16375.18359375,131.0
123.0,3936.3232421875,17983.99609375,127.0
124.0,3956.860107421875,18410.38671875,127.0
125.0,3726.837158203125,17483.24609375,126.0
126.0,3717.65185546875,14434.234375,127.0
127.0,3855.441650390625,17044.67578125,97.0
128.0,3969.386474609375,15984.7421875,146.0
129.0,3784.291015625,15525.21875,108.0
130.0,3690.329345703125,15806.76953125,106.0
131.0,3721.3466796875,15323.44921875,100.0
132.0,3764.74658203125,14772.05078125,132.0
133.0,3764.055419921875,16496.25390625,132.0
134.0,3725.509765625,18837.765625,108.0
135.0,3593.983642578125,19035.58984375,108.0
136.0,3433.005615234375,15897.48046875,142.0
137.0,3452.056640625,13867.4921875,142.0
138.0,3592.04736328125,14495.38671875,94.0
139.0,3600.000732421875,15500.40625,94.0
140.0,3571.9775390625,15628.03125,94.0
141.0,3561.88232421875,12481.40625,135.0
142.0,3626.19384765625,14440.74609375,132.0
143.0,3712.87744140625,12425.8046875,114.0
144.0,3808.289794921875,12109.92578125,114.0
145.0,3819.810791015625,14531.5390625,116.0
146.0,3756.752197265625,18162.0,93.0
147.0,3684.072021484375,14557.75,76.0
148.0,3676.509521484375,13087.55859375,122.0
149.0,3803.02587890625,14285.0625,122.0
150.0,3869.58154296875,20778.55859375,122.0
151.0,3797.74609375,21051.34375,122.0
152.0,3512.043212890625,13595.65625,145.0
153.0,3196.17529296875,11671.921875,127.0
154.0,3247.547119140625,12188.37890625,163.0
155.0,3392.96630859375,13276.26171875,110.0
156.0,3525.417724609375,13644.17578125,110.0
157.0,3644.186767578125,12561.18359375,110.0
158.0,3490.603515625,13735.125,110.0
159.0,3424.527587890625,11538.9765625,110.0
160.0,3195.020751953125,11864.7421875,110.0
161.0,3199.218017578125,11248.546875,97.0
162.0,3391.514892578125,11842.21484375,97.0
163.0,3782.026123046875,12306.6171875,79.0
164.0,3923.2177734375,12902.2421875,80.0
165.0,3474.234130859375,14118.89453125,80.0
166.0,3289.021728515625,12805.5078125,80.0
167.0,3291.063232421875,11130.02734375,148.0
168.0,3687.525390625,13345.8359375,119.0
169.0,3944.443359375,14819.9453125,90.0
170.0,3711.50732421875,15918.24609375,141.0
171.0,3355.101318359375,11642.05078125,119.0
172.0,3270.289794921875,11481.94140625,119.0
173.0,3554.064208984375,11426.22265625,119.0
174.0,3635.806884765625,14177.8515625,127.0
175.0,3548.427978515625,17459.7578125,127.0
176.0,3425.00537109375,14712.83984375,127.0
177.0,3419.52197265625,13558.109375,119.0
178.0,3368.063720703125,13961.359375,137.0
179.0,3337.733642578125,12264.421875,137.0
180.0,3541.9013671875,13607.47265625,98.0
181.0,4015.416259765625,14067.86328125,98.0
182.0,4052.90283203125,16326.8984375,98.0
183.0,3779.204833984375,15002.08984375,117.0
184.0,3894.05419921875,13189.60546875,117.0
185.0,4013.159423828125,15755.09375,117.0
186.0,3928.782958984375,13971.49609375,117.0
187.0,3911.23779296875,14047.328125,129.0
188.0,4005.922119140625,12321.40625,110.0
189.0,3952.013916015625,14974.74609375,135.0
190.0,3701.722412109375,16472.21875,135.0
191.0,3601.359375,12858.5859375,129.0
192.0,3909.3857421875,14151.3984375,129.0
193.0,4278.181640625,13622.984375,135.0
194.0,4395.5126953125,16498.92578125,135.0
195.0,4151.248046875,18626.59375,117.0
196.0,4195.65234375,19947.578125,117.0
197.0,4183.05859375,18387.83203125,117.0
198.0,4372.13232421875,17595.23828125,117.0
199.0,4503.255859375,16093.21484375,108.0
200.0,4213.21728515625,17618.859375,124.0
201.0,3896.69384765625,16973.3828125,124.0
202.0,3650.92724609375,15625.62109375,68.0
203.0,3886.374755859375,15576.93359375,68.0
204.0,3923.55078125,14833.5703125,68.0
205.0,3854.692626953125,13507.08203125,108.0
206.0,3701.97607421875,11514.1015625,108.0
207.0,3648.4609375,12214.0234375,108.0
208.0,3647.64306640625,12010.7890625,117.0
209.0,3776.767822265625,12301.359375,119.0
210.0,3770.236328125,13957.3203125,119.0
211.0,3579.182373046875,13945.2578125,115.0
212.0,3514.28369140625,12480.83984375,118.0
213.0,3528.317626953125,10471.44921875,118.0
214.0,3685.211669921875,11929.875,76.0
215.0,3529.438232421875,12939.80078125,76.0
216.0,3200.893310546875,14105.546875,76.0
217.0,3119.421142578125,11491.203125,125.0
218.0,3160.52099609375,13863.38671875,125.0
219.0,3192.07861328125,13381.1796875,125.0
220.0,3101.807373046875,12643.046875,125.0
221.0,3123.5107421875,12233.76171875,90.0
222.0,3108.56298828125,12146.3984375,90.0
223.0,3073.546875,11276.4140625,90.0
224.0,3097.5732421875,12416.76953125,131.0
225.0,3266.696533203125,13310.55078125,150.0
226.0,3236.843994140625,11203.046875,96.0
227.0,3138.35400390625,10893.828125,96.0
228.0,2930.27685546875,11859.140625,80.0
229.0,3026.244384765625,13093.72265625,90.0
230.0,3219.327392578125,13310.1484375,102.0
231.0,3225.430908203125,10953.15625,132.0
232.0,3098.493896484375,13767.265625,107.0
233.0,3270.15625,10943.08203125,130.0
234.0,3348.590576171875,11170.7109375,71.0
235.0,3209.577392578125,14067.63671875,149.0
236.0,3168.43505859375,14895.73046875,144.0
237.0,3206.88818359375,12459.5859375,109.0
238.0,3053.094970703125,14735.83203125,108.0
239.0,3015.474853515625,12834.43359375,143.0
240.0,3103.847412109375,12968.58203125,144.0
241.0,3285.479248046875,13971.0234375,144.0
242.0,3213.492431640625,11642.67578125,105.0
243.0,3159.76025390625,10351.83203125,109.0
244.0,3566.2080078125,13397.3046875,97.0
245.0,3935.286865234375,13825.71484375,109.0
246.0,3882.74169921875,15650.88671875,137.0
247.0,3616.61083984375,13141.96875,114.0
248.0,3582.388427734375,13268.47265625,114.0
249.0,3730.220458984375,17533.33984375,138.0
250.0,3981.1923828125,14453.15625,138.0
251.0,3895.5849609375,14695.109375,106.0
252.0,3608.29638671875,12196.125,128.0
253.0,3493.56591796875,13540.078125,128.0
254.0,3778.627197265625,13587.08203125,128.0
255.0,3650.7666015625,12869.984375,84.0
256.0,3528.0322265625,13770.375,128.0
257.0,3745.2470703125,14108.125,112.0
258.0,3901.3984375,15760.78125,112.0
259.0,3910.9423828125,15013.69921875,75.0
260.0,3982.490234375,14068.90234375,90.0
261.0,3835.955322265625,15002.296875,118.0
262.0,3745.31640625,13773.3828125,118.0
263.0,3939.735107421875,12310.30078125,94.0
264.0,4149.13525390625,14857.34765625,111.0
265.0,4083.717041015625,13153.71484375,94.0
266.0,3900.041748046875,13890.32421875,94.0
267.0,4071.11376953125,14747.64453125,94.0
268.0,4329.7197265625,13633.87890625,94.0
269.0,4128.61865234375,17258.078125,133.0
270.0,3898.636474609375,14085.63671875,133.0
271.0,3969.42333984375,12614.21484375,133.0
272.0,4238.24365234375,15262.97265625,133.0
273.0,4218.64697265625,13904.109375,124.0
274.0,3716.90966796875,13347.67578125,108.0
275.0,3403.55224609375,13036.71484375,108.0
276.0,3538.847900390625,12152.8671875,87.0
277.0,3773.968505859375,12992.73828125,81.0
278.0,3734.777587890625,12444.58984375,88.0
279.0,3731.32861328125,14650.09765625,88.0
280.0,3805.85888671875,13030.78515625,109.0
281.0,3701.63232421875,14538.48046875,113.0
282.0,3486.208984375,13183.87109375,113.0
283.0,3505.4453125,14064.09375,113.0
284.0,3903.7607421875,15118.8984375,113.0
285.0,4086.7265625,15780.87109375,113.0
286.0,3742.007568359375,13661.0546875,113.0
287.0,3401.111572265625,10559.40234375,133.0
288.0,3481.587890625,12767.41015625,137.0
289.0,3661.140380859375,13562.65234375,100.0
290.0,3587.104248046875,13662.15234375,100.0
291.0,3347.606689453125,14111.65234375,107.0
292.0,3305.10888671875,13009.74609375,98.0
293.0,3645.6015625,13229.14453125,133.0
294.0,3770.802734375,14868.70703125,126.0
295.0,3340.732666015625,13840.76171875,132.0
296.0,3037.738525390625,12661.796875,132.0
297.0,3348.255615234375,12360.6484375,126.0
298.0,3700.23095703125,12224.9609375,126.0
299.0,3427.739013671875,14001.88671875,126.0
300.0,3110.896728515625,14412.66015625,126.0
301.0,3316.14111328125,11305.625,105.0
302.0,3524.42822265625,13623.171875,105.0
303.0,3411.007568359375,13965.4453125,116.0
304.0,3254.947998046875,15070.2109375,104.0
305.0,3469.715576171875,13050.234375,104.0
306.0,3587.15283203125,11847.9140625,100.0
307.0,3501.02685546875,12712.359375,100.0
308.0,3255.30419921875,14322.328125,100.0
309.0,3418.268310546875,13957.3203125,100.0
310.0,3603.140380859375,12344.40625,100.0
311.0,3554.451904296875,11642.109375,100.0
312.0,3201.242431640625,10658.82421875,100.0
313.0,3123.3984375,12520.90234375,103.0
314.0,3471.37255859375,13657.90625,98.0
315.0,3604.635498046875,11767.953125,98.0
316.0,3314.32470703125,13253.2265625,147.0
317.0,3185.7080078125,13203.54296875,147.0
318.0,3258.863037109375,11862.1796875,97.0
319.0,3516.2822265625,12309.91015625,116.0
320.0,3624.7890625,13630.984375,116.0
321.0,3564.92822265625,14383.9921875,143.0
322.0,3611.092529296875,15287.55859375,107.0
323.0,3806.354248046875,14088.875,96.0
324.0,3953.650146484375,14321.75,96.0
325.0,3908.621826171875,14383.9921875,106.0
326.0,3846.86376953125,13853.57421875,106.0
327.0,3978.379638671875,14554.625,106.0
328.0,4142.83642578125,15136.80859375,106.0
329.0,4059.634033203125,13441.86328125,106.0
330.0,3807.048095703125,13565.96484375,106.0
331.0,3791.8388671875,13363.26171875,150.0
332.0,3837.462158203125,14618.98828125,98.0
333.0,3918.517822265625,13162.9609375,98.0
334.0,3799.076171875,16797.8984375,98.0
335.0,3848.38916015625,14145.59765625,93.0
336.0,3644.1240234375,12718.515625,131.0
337.0,3521.793701171875,11841.37890625,131.0
338.0,3625.66455078125,16453.69921875,93.0
339.0,3786.6669921875,14958.1875,93.0
340.0,3475.84130859375,12741.42578125,93.0
341.0,3274.303466796875,12346.92578125,93.0
342.0,3213.82666015625,11782.796875,91.0
343.0,3416.04052734375,14267.80859375,93.0
344.0,3524.504150390625,13566.25,93.0
345.0,3674.587158203125,13830.625,93.0
346.0,3693.425537109375,14212.53515625,102.0
347.0,3535.640625,12208.36328125,102.0
348.0,3330.6142578125,11955.65625,102.0
349.0,3792.769775390625,12175.0078125,102.0
350.0,4184.3720703125,14338.01171875,102.0
351.0,3941.832763671875,13965.2109375,91.0
352.0,3392.6953125,14396.65234375,95.0
353.0,3301.451416015625,12782.19140625,95.0
354.0,3837.084228515625,13722.1640625,119.0
355.0,3986.188232421875,15252.2578125,119.0
356.0,3578.275390625,12475.5390625,146.0
357.0,3306.526611328125,11523.046875,87.0
358.0,3495.279296875,12432.046875,87.0
359.0,3671.70947265625,14819.9453125,87.0
360.0,3551.8330078125,14170.8984375,87.0
361.0,3407.83984375,11269.1328125,87.0
362.0,3341.614501953125,13607.1640625,87.0
363.0,3489.89453125,14155.25,87.0
364.0,3589.174072265625,13969.72265625,102.0
365.0,3724.929931640625,13857.85546875,102.0
366.0,3797.037109375,12305.4453125,102.0
367.0,3514.650634765625,13158.52734375,102.0
368.0,3335.811767578125,13351.515625,102.0
369.0,3393.971923828125,16541.703125,142.0
370.0,3786.41015625,14692.6640625,142.0
371.0,3886.470703125,14682.19140625,142.0
372.0,3595.509765625,14999.58984375,142.0
373.0,3452.5693359375,12923.62109375,90.0
374.0,3549.04443359375,11523.5625,90.0
375.0,3432.43896484375,10702.88671875,103.0
376.0,3443.541259765625,12433.12890625,82.0
377.0,3677.796630859375,15723.47265625,136.0
378.0,3619.769775390625,16427.5078125,73.0
379.0,3174.95751953125,12283.375,73.0
380.0,3191.858154296875,12510.70703125,105.0
381.0,3699.59912109375,11851.64453125,89.0
382.0,3785.95263671875,15521.1953125,89.0
383.0,3735.019287109375,12788.58984375,118.0
384.0,3642.125244140625,16919.2421875,118.0
385.0,3689.512939453125,15251.1484375,110.0
386.0,3506.79638671875,12937.4453125,118.0
387.0,3669.221923828125,13555.35546875,118.0
388.0,3790.619873046875,11676.66015625,118.0
389.0,3412.0029296875,14572.93359375,104.0
390.0,3178.98681640625,15158.1953125,104.0
391.0,3487.379638671875,15278.50390625,85.0
392.0,3675.397216796875,13170.73828125,85.0
393.0,3331.46240234375,13930.58984375,114.0
394.0,3057.2314453125,11768.13671875,114.0
395.0,3479.955322265625,12257.64453125,132.0
396.0,3741.075439453125,12186.1875,132.0
397.0,3372.84228515625,13420.99609375,132.0
398.0,3160.737060546875,13088.2421875,132.0
399.0,3461.631591796875,11287.08984375,86.0
400.0,3646.310791015625,12885.1640625,115.0
401.0,3605.9931640625,13364.66015625,115.0
402.0,3600.502197265625,12124.74609375,111.0
403.0,3695.545166015625,12811.375,94.0
404.0,3692.195068359375,12381.8359375,80.0
405.0,3766.519775390625,12823.5078125,80.0
406.0,3886.766357421875,12407.45703125,80.0
407.0,3794.317626953125,15222.09375,105.0
408.0,3448.646728515625,12838.02734375,132.0
409.0,3640.883544921875,12727.28515625,110.0
410.0,3983.8583984375,15154.25390625,86.0
411.0,3783.958984375,14068.671875,98.0
412.0,3519.6611328125,12238.4453125,102.0
413.0,3580.709716796875,12156.33984375,102.0
414.0,3661.8603515625,16338.59375,92.0
415.0,3677.00537109375,15310.2890625,83.0
416.0,3824.6396484375,14671.0859375,102.0
417.0,3827.74853515625,17237.9609375,102.0
418.0,3642.2919921875,13627.3046875,102.0
419.0,3430.343994140625,14104.48828125,139.0
420.0,3736.619384765625,13983.9375,87.0
421.0,3957.074462890625,13511.80859375,140.0
422.0,3821.439208984375,12277.94921875,126.0
423.0,3454.919921875,15068.89453125,126.0
424.0,3598.365234375,16515.51171875,126.0
425.0,3957.072021484375,14300.0,90.0
426.0,3936.21240234375,12889.0703125,136.0
427.0,3708.458251953125,12222.7578125,136.0
428.0,3748.30126953125,13310.1484375,136.0
429.0,3845.528564453125,12886.1328125,114.0
430.0,3904.557373046875,12765.078125,114.0
431.0,3907.236328125,13948.015625,129.0
432.0,3828.98828125,12377.05078125,129.0
433.0,3480.064453125,12495.45703125,130.0
434.0,3494.343017578125,13712.59375,130.0
435.0,3848.068359375,15510.171875,130.0
436.0,4237.9833984375,14167.2421875,150.0
437.0,4146.37646484375,14758.609375,150.0
438.0,3701.57958984375,12843.3984375,98.0
439.0,3575.41845703125,15267.82421875,98.0
440.0,4036.526611328125,14721.03125,98.0
441.0,4274.05810546875,15810.703125,140.0
442.0,3856.015625,13568.88671875,140.0
443.0,3621.302734375,12069.515625,140.0
444.0,3974.89990234375,15453.4921875,110.0
445.0,4054.965576171875,12885.375,114.0
446.0,3733.69873046875,13353.0703125,114.0
447.0,3700.4677734375,15720.34375,108.0
448.0,3773.6669921875,12945.8203125,108.0
449.0,3760.800048828125,12128.9765625,108.0
450.0,3755.932861328125,13219.15625,127.0
451.0,3613.98291015625,11504.62109375,147.0
452.0,3392.812255859375,12122.5390625,147.0
453.0,3233.8125,13449.2578125,147.0
454.0,3715.90283203125,11999.671875,136.0
455.0,3832.3193359375,11685.17578125,136.0
456.0,3566.45458984375,11979.921875,136.0
457.0,3376.91162109375,11400.56640625,136.0
458.0,3640.099853515625,12687.03125,128.0
459.0,3855.21142578125,13427.92578125,109.0
460.0,3802.254638671875,12739.03515625,109.0
461.0,3577.501953125,13772.5859375,109.0
462.0,3586.228759765625,13019.39453125,135.0
463.0,3733.44091796875,12980.29296875,135.0
464.0,3896.749267578125,13148.390625,135.0
465.0,4140.0126953125,14235.63671875,96.0
466.0,4127.4580078125,15158.83203125,74.0
467.0,3823.656982421875,14450.20703125,74.0
468.0,3737.187744140625,12866.4296875,74.0
469.0,4104.70849609375,14674.34375,74.0
470.0,4292.546875,18975.2421875,74.0
471.0,4045.169921875,19972.015625,81.0
472.0,3686.873779296875,14233.63671875,81.0
